15864
15864
15864
15864
15864
15864
15864
15864
15864
15864
15864
15864
15864
15864
15864
15864
15864
15864
15864
15864
15864
15864
15864
15864
15864
15864
15864
15864
15864
15864
15864
15864
18864
22340
25904
26396
29032
29064
29096
29208
29272
29320
29388
29564
30264
33984
41580
47096
54740
57888
61508
66772
73604
84720
91832
100016
107928
116112
124032
131684
139604
146996
153068
153476
154876
155900
157388
160136
162512
165480
167212
172492
178432
179020
179300
179984
180140
180140
180140
180140
180428
180428
180428
180428
180428
180428
180428
180428
180428
180428
180428
180428
180428
180428
180428
180428
180428
180428
180428
180428
180428
180428
180428
180428
180428
180428
180428
180428
180428
180428
180428
180428
180428
180428
180428
180428
180428
180428
180428
180428
180428
180436
180436
180532
180876
181240
181656
181888
182332
182580
182924
183116
183628
183796
184136
184488
184696
185140
185308
185700
185984
186324
186456
186836
187352
187528
187896
188120
188328
188660
189076
189344
189676
190032
190376
190832
191336
191580
191932
192412
192732
193216
193448
194140
194348
194828
195280
195780
196032
196476
196712
196968
197432
197664
197908
198372
198616
199080
199300
199780
200020
200492
200740
201240
201456
201708
202212
202444
202668
203140
203636
203636
204092
204544
204764
205188
205432
205928
206168
206612
206844
207308
207524
207968
208404
208636
209100
209732
209976
210480
210724
211128
211804
212156
212396
212852
213304
213528
214232
214716
214968
215376
215424
215476
215508
215508
215508
216600
217924
220560
223164
225804
228444
231032
233936
236840
239480
242384
245024
246872
246872
246872
246872
246872
246872
246872
246872
246872
246872
247060
247060
247060
247060
248492
251200
254104
256744
259120
261760
264400
266776
269944
272584
272848
272848
272848
272848
272848
272848
272848
272848
272848
272848
272848
272848
272848
272848
277264
286332
293844
293844
293844
293844
293844
293844
293844
293844
293844
293844
293848
293848
293848
293848
293848
293848
293848
293848
293848
293848
293852
293856
293856
294628
294628
294648
294648
295472
295688
295688
295688
295688
295688
295688
300464
300464
296232
297732
307692
327568
344312
344312
344312
344312
344312
344312
344312
344432
344436
344436
344436
344436
344816
344816
344816
344816
344816
344816
344816
344816
344816
344816
344816
344816
344816
344816
344816
344816
344816
344816
344816
344816
344816
344816
344816
344816
344816
344816
344816
344816
344816
344816
344816
344816
344816
344816
344816
344816
344816
344816
344816
344816
344816
344816
344816
344816
344816
344816
344816
344816
344816
344816
344816
344816
344816
344816
344816
344816
344816
344816
344816
344816
344816
344816
344816
344816
344816
344816
344816
344816
344816
344816
344816
344816
344816
344816
344816
344816
344816
344816
344816
344816
344816
344816
344816
344816
344816
344816
344816
344816
344816
344816
344816
344816
344816
344816
344816
344816
344816
344816
344816
344816
344816
344816
344816
344816
344816
344816
344816
344816
344816
344816
344816
344816
344816
344816
344816
344816
344816
344816
344816
344816
344816
344816
344816
344816
344816
344816
344816
344816
344816
344816
344816
344816
344816
344816
344816
344816
344816
344816
344816
344816
344816
344816
344816
344816
344816
344816
344816
344816
344816
344816
344816
344816
344816
344816
344816
344816
344816
344816
344816
344816
344816
344816
344816
344816
344816
344816
344816
344816
344816
344816
344816
344816
344816
344816
344816
344816
344816
344816
344816
344816
344816
344816
344816
344816
344816
344816
344816
344816
344816
344816
344816
344816
344816
344816
344816
344816
344816
344816
344816
344816
344816
344816
344816
344816
344816
344816
344816
344816
344816
344816
344816
344816
344816
344816
344816
344816
344816
344816
344816
344816
344816
344816
344816
344816
344816
344816
344816
344816
344816
344816
344816
344816
344816
344816
344816
344816
344816
344816
344816
344816
344816
344816
344816
344816
344816
344816
344816
344816
344816
344816
344816
344816
344816
344816
344816
344816
344816
344816
344816
344816
344816
344816
344816
344816
344816
344816
344816
344816
344816
344816
344816
344816
344816
344816
344816
344816
344816
344816
344816
344816
344816
344816
344816
344816
344816
344816
344816
344816
344816
344816
344816
344816
344816
344816
344816
344816
344816
344816
344816
344816
344816
344816
344816
344816
344816
344816
344816
344816
344816
344816
344816
344816
344816
344816
344816
344816
344816
344816
344816
344816
344816
344816
344816
344816
344816
344816
344816
344816
344816
344816
344816
344816
344816
344816
344816
344816
344816
344816
344816
344816
344816
344816
344816
344816
344816
344816
344816
344816
344816
344816
344816
344816
344816
344816
344816
344816
344816
344816
344816
344816
344816
344816
344816
344816
344816
344816
344816
344816
344816
344816
344816
344816
344816
344816
344816
344816
344816
344816
344816
344816
344816
344816
344816
344816
344816
344816
344816
344816
344816
344816
344816
344816
344816
344816
344816
344816
344816
344816
344816
344816
344816
344816
344816
344816
344816
344816
344816
344816
344816
344816
344816
344816
344816
344816
344816
344816
344816
344816
344816
344816
344816
344816
344816
344816
344816
344816
344816
344816
344816
344816
344816
344816
344816
344816
344816
344816
344816
344816
344816
344816
344816
344816
344816
344816
344816
344816
344816
344816
344816
344816
344816
344816
344816
344816
344816
344816
344816
344816
344816
344816
344816
344816
344816
344816
344816
344816
344816
344816
344816
344816
344816
344816
344816
344816
344816
344816
344816
344816
344816
344816
344816
344816
344816
344816
344816
344816
344816
344816
344816
344816
344816
344816
344816
344816
344816
344816
344816
344816
344816
344816
344816
344816
344816
344816
344816
344816
344816
344816
344816
344816
344816
344816
344816
344816
344816
344816
344816
344816
344816
344816
344816
344816
344816
344816
344816
344816
344816
344816
344816
344816
344816
344816
344816
344816
344816
344816
344816
344816
344816
344816
344816
344816
344816
344816
344816
344816
344816
344816
344816
344816
344816
344816
344816
344816
344816
344816
344816
344816
344816
344816
344816
344816
344816
344816
344816
344816
344816
344816
344816
344816
344816
344816
344816
344816
344816
344816
344816
344816
344816
344816
344816
344816
344816
344816
344816
344816
344816
344816
344816
344816
344816
344816
344816
344816
344816
344816
344816
344816
344816
344816
344816
344816
344816
344816
344816
344816
344816
344816
344816
344816
344816
344816
344816
344816
344816
344816
344816
344816
344816
344816
344816
344816
344816
344816
344816
344816
344816
344816
344816
344816
344816
344816
344816
344816
344816
344816
344816
344816
344816
344816
344816
344816
344816
344816
344816
344816
344816
344816
344816
344816
344816
344816
344816
344816
344816
344816
344816
344816
344816
344816
344816
344816
344816
344816
344816
344816
344816
344816
344816
344816
344816
344816
344816
344816
344816
344816
344816
344816
344816
344816
344816
344816
344816
344816
344816
344816
344816
344816
344816
344816
344816
344816
344816
344816
344816
344816
344816
344816
344816
344816
344816
344816
344816
344816
344816
344816
344816
344816
344816
344816
344816
344816
344816
344816
344816
344816
344816
344816
344816
344816
344816
344816
344816
344816
344816
344816
344816
344816
344816
344816
344816
344816
344816
344816
344816
344816
344816
344816
344816
344816
344816
344816
344816
344816
344816
344816
344816
344816
344816
344816
344816
344816
344816
344816
344816
344816
344816
344816
344816
344816
344816
344816
344816
344816
344816
344816
344816
344816
344816
344816
344816
344816
344816
344816
344816
344816
344816
344816
344816
344816
344816
344816
344816
344816
344816
344816
344816
344816
344816
344816
344816
344816
344816
344816
344816
344816
344816
344816
344816
344816
344816
344816
344816
344816
344816
344816
344816
344816
344816
344816
344816
344816
344816
344816
344816
344816
344816
344816
344816
344816
344836
345376
345432
345432
345432
345432
345432
345432
345432
345432
345432
345432
345432
345432
345432
345432
345432
345432
345432
345432
345432
345432
345432
345432
345432
345432
345432
345432
345432
345432
345432
345432
345432
345432
345432
345432
345432
345432
345432
345432
345432
345432
345432
345432
345432
345432
345432
345432
345432
345432
345432
345432
345432
345432
345432
345432
345432
345432
345432
345432
345432
345432
345432
345436
347484
347504
347504
347588
347852
348072
348080
348080
348080
348148
362852
377352
377380
377380
377380
377380
377380
377380
377380
377424
377548
377620
377732
377824
377892
378024
378172
378336
378460
378480
378524
378592
378720
378816
378860
378924
378972
379012
379128
379336
379376
379404
379428
379488
379568
379632
379716
379796
379892
379984
380132
380316
380428
380524
380668
380748
380792
380856
380952
381000
381108
381224
381352
381536
381728
381868
382128
382276
382612
382744
382844
382936
382996
383052
383096
383268
383876
384024
384100
384180
384292
384480
384616
384768
384852
385048
385176
385292
385468
385608
385712
385904
386144
386256
386328
386600
386712
386844
387060
387344
387656
387804
387884
387980
388040
388104
388184
388264
388312
388344
388416
388540
388596
388648
388784
388920
389016
389116
389240
389368
389420
389580
389664
389748
389796
389880
390024
390164
390384
390700
390824
390936
391236
391348
391416
391480
391524
391608
391712
391792
391892
391956
392016
392044
392176
392272
392396
392520
392720
392856
392888
392940
393080
393204
393280
393344
393412
393444
393588
393696
393820
394092
394276
394584
394736
394876
394960
395068
395196
395264
395348
395464
395532
395624
395672
395792
395980
396088
396188
396268
396304
396424
396460
396536
396664
396760
396836
396936
397000
397040
397108
397232
397408
397516
397612
397656
397728
397920
397984
398056
398104
398284
398412
398696
398900
399084
399272
399548
399732
399812
399928
400076
400136
400276
400456
400720
400936
401100
401212
401396
401500
401668
401788
401840
401948
402032
402112
402228
402256
402324
402408
402424
402444
402448
402452
402536
402576
402624
402656
402700
402712
402760
402792
402840
402856
402904
402904
402920
402984
403020
403096
403096
403144
403176
403208
403208
403240
403256
403276
403288
403320
403364
403364
403432
403520
403588
403676
403788
403788
403892
403984
403992
404000
404056
404104
404108
404152
404184
404220
404236
404244
404292
404296
404384
404420
404436
404452
404520
404552
404568
404604
404692
404756
404764
404792
404832
404960
404992
405044
405168
405224
405224
405280
405364
405400
405476
405524
405556
405636
405668
405700
405764
405812
405816
405900
405956
405964
405976
406056
406112
406160
406216
406252
406252
406272
406388
406428
406428
406508
406528
406608
406660
406664
406764
406784
406832
406864
406896
406960
407040
407060
407136
407152
407220
407264
407300
407360
407384
407456
407512
407556
407564
407644
407688
407736
407748
407752
407856
407908
407956
407992
408020
408100
408120
408176
408252
408284
408320
408400
408436
408488
408552
408612
408640
408732
408764
408784
408956
408960
409028
409060
409076
409140
409176
409268
409304
409368
409404
409508
409560
409628
409736
409788
409900
410040
410704
413148
415644
418080
420192
422112
424200
426584
428832
431100
433724
435560
437964
440364
442464
444748
446892
449088
451336
453548
455680
457592
459240
461044
463216
469216
485740
487744
479288
479288
