14880
14956
15044
15112
15228
15400
15836
15836
15836
15836
15844
15844
15844
15844
15844
15844
15844
15844
15844
15844
15844
15844
15844
15844
15844
15844
15844
15844
15844
15844
15844
15844
15844
15844
15844
15844
15844
15844
15844
15844
15844
15844
15844
15844
15844
15844
15844
15844
15844
15844
15844
15844
15844
15844
15844
15844
15844
15844
15844
15844
15844
15844
15844
15844
15844
15844
15844
15844
15844
15844
15844
15844
15844
15844
15844
15844
15844
15844
15844
15852
16848
18832
19804
21056
22256
23480
25060
25824
26080
27776
27776
27776
27776
27776
27776
27776
27788
27788
27788
27800
27800
27800
27844
29664
32480
36080
41480
45052
49536
53496
56220
56364
59804
64292
66124
71116
80456
83860
88084
92572
97060
102596
107084
112892
117380
121868
126092
130844
135332
139556
144044
148004
151172
150988
151892
152820
153508
153808
154248
155148
156124
156400
157740
159232
162324
164700
166860
170604
171180
171316
171960
171960
171960
171960
171960
171960
171960
172116
172376
172376
172376
172376
172376
172376
172376
172376
172376
172376
172376
172376
172376
172376
172376
172376
172376
172376
172376
172376
172376
172376
172376
172376
172376
172376
172376
172376
172376
172376
172376
172376
172376
172376
172376
172376
172376
172376
172376
172376
172376
172376
172376
172376
172376
172376
172376
172376
172376
172376
172376
172376
172376
172376
172376
172376
172376
172376
172376
172376
172376
172376
172376
172376
172376
172376
172376
172376
172376
172384
172384
172384
172384
172408
172660
172744
172932
173132
173352
173576
173828
174036
174264
174264
174504
174832
174952
175136
175348
175544
175676
175800
175952
176120
176284
176484
176680
176680
176924
176924
177100
177256
177256
177416
177604
177604
177756
177880
178068
178068
178352
178528
178668
178928
179192
179192
179364
179728
179932
179932
180128
180332
180512
180704
180908
181212
181340
181492
181844
181968
182312
182456
182572
183008
183256
183484
183636
183808
184056
184468
184584
184796
185036
185280
185476
185712
186072
186232
186456
186664
187040
187280
187508
187756
188148
188148
188392
188624
188888
188888
189112
189336
189560
189560
189792
190012
190232
190472
190692
190912
191136
191360
191588
191588
191848
192076
192296
192528
192780
193040
193260
193484
193484
193744
193984
194208
194432
194676
194676
194904
195128
195356
195608
195832
195832
196064
196288
196488
196700
196900
197120
197352
197580
197840
198052
198272
198488
198704
198932
199156
199156
199376
199716
199944
200156
200380
200612
200844
201276
201456
201676
201932
202168
202424
202656
202832
203056
203468
203772
203972
204220
204220
204652
205124
205312
205312
205544
205996
206220
206468
206964
207192
207292
207328
207328
207344
207420
207420
207420
207420
207420
207420
207420
207656
208292
208880
209640
210416
211224
212360
213148
214204
214996
215788
216316
217108
218164
218692
219748
220452
221244
222300
222828
224148
225468
226524
228108
229428
230484
231804
233124
234708
236008
237328
238120
238120
238120
238120
238120
238120
238120
238120
238120
238120
238120
238120
238120
238120
238120
238120
238120
238120
238120
238120
238120
238120
238120
238120
238120
238120
238120
238944
240504
241560
243144
244464
245520
246312
247104
247896
248952
249744
250272
251328
252120
252912
253704
254496
255288
256344
257400
258984
260304
261624
263208
264000
264000
264000
264000
264000
264000
264000
264000
264000
264000
264000
264000
264000
264000
264000
264000
264000
264000
264000
264000
264000
264000
264000
264000
264000
266128
274916
283328
285084
285084
285084
285084
285084
285084
285084
285084
285084
285084
285084
285084
285084
285084
285088
285088
285088
285088
285088
285088
285088
285088
285088
285088
285088
285088
285088
285088
285088
285088
285088
285088
285088
285876
285876
285876
285896
285896
285900
285900
285900
285900
285908
285908
285908
285908
285908
285908
285908
285908
285908
285908
285908
285908
285908
285908
285908
285908
285908
285908
285908
285908
285908
285908
285908
285908
285908
285908
285908
285908
285908
285908
285908
285908
285908
285908
285908
285908
285908
285908
285908
285908
285908
285908
285908
285908
285908
285908
285908
285908
285908
285908
285908
285908
285908
285908
285908
285908
285908
285908
285908
285908
285908
285908
285908
285908
285908
285908
285908
285908
285908
285908
285908
285908
285908
285908
285908
285908
285908
285908
285908
285908
285908
285908
285908
285908
285908
285908
285908
285908
285908
285908
285908
285908
285908
285908
285908
285908
285908
285908
285908
285908
285908
285908
285908
285908
285908
285908
285908
285908
285908
285908
285908
285908
285908
285908
285908
285908
285908
285908
285908
285908
285908
285908
285908
285908
285908
285908
285908
285908
285908
285908
285908
285908
285908
285908
285908
285908
285908
285908
285908
285908
285908
285908
285908
285908
285908
285908
285908
285908
285908
285908
285908
285908
285908
285908
285908
285908
285908
285908
285908
285908
285908
285908
285908
285908
285908
285908
285908
285908
285908
285908
285908
285908
285908
285908
285908
285908
285908
285908
285908
285908
285908
285908
285908
285908
285908
285908
285908
285908
285908
285908
285908
285908
285908
285908
285908
285908
285908
285908
285908
285908
285908
285908
285908
285908
285908
285908
285908
285908
285908
285908
285908
285908
285908
285908
285908
285908
285908
285908
285908
285908
285908
285908
285908
285912
285912
285912
285912
285912
285912
285912
285912
285912
285912
285912
285912
285912
285912
285912
285912
285912
285912
285912
285912
285912
285912
285912
285912
285912
285912
285912
285912
285912
285912
285912
285912
285912
285912
285912
285912
285912
285912
285912
285912
285912
285912
285912
285912
285912
285912
285912
285912
285912
285912
285912
285912
285912
285912
285912
285912
285912
285912
285912
285912
285912
285912
285912
285912
285912
285912
285912
285912
285912
285912
285912
285912
285912
285912
285912
285912
285912
285912
285912
285912
285912
285912
285912
285912
285912
285912
285912
285912
285912
285912
285912
285912
285912
285912
285912
285912
285912
285912
285912
285912
285912
285912
285912
285912
285912
285912
285912
285912
285912
285912
285912
285912
285912
285912
285912
285912
285912
285912
285912
285912
285912
285912
285912
285912
285912
285912
285912
285912
285912
285912
285912
285912
285912
285912
285912
285912
285912
285912
285912
285912
285912
285912
285912
285912
285912
285912
285912
285912
285912
285912
285912
285912
285912
285912
285912
285912
285912
285912
285912
285912
285912
285912
285912
285912
285912
285912
285912
285912
285912
285912
285912
285912
285912
285912
285912
285912
285912
285912
285912
285912
285912
285912
285912
285912
285912
285912
285912
285912
285912
285912
285912
285912
285912
285912
285912
285912
285912
285912
285912
285912
285912
285912
285912
285912
285912
285912
285912
285912
285912
285912
285912
285912
285912
285912
285912
285912
285912
285912
285912
285912
285912
285912
285912
285912
285912
285912
285912
285912
285912
285912
285912
285912
285912
285912
285912
285912
285912
285912
285912
285912
285912
285912
285912
285912
285912
285912
285912
285912
285912
285912
285912
285912
285912
285912
285912
285912
285912
285912
285912
285912
285912
285912
285912
285912
285912
285912
285912
285912
285912
285912
285912
285912
285912
285912
285912
285912
285912
285912
285912
285912
285912
285912
285912
285912
285912
285912
285912
285912
285912
285912
285912
285912
285912
285912
285912
285912
285912
285912
285912
285912
285912
285912
285912
285912
285912
285912
285912
285912
285912
285912
285912
285912
285912
285912
285912
285912
285912
285912
285912
285912
285912
285912
285912
285912
285912
285912
285912
285912
285912
285912
285912
285912
285912
285912
285912
285912
285912
285912
285912
285912
285912
285912
285912
285912
285912
285912
285912
285912
285912
285912
285912
285912
285912
285912
285912
285912
285912
285912
285912
285912
285912
285912
285912
285912
285912
285912
285912
285912
285912
285912
285912
285912
285912
285912
285912
285912
285912
285912
285912
285912
285912
285912
285912
285912
285912
285912
285912
285912
285912
285912
285912
285912
285912
285912
285912
285912
285912
285912
285912
285912
285912
285912
285912
285912
285912
285912
285912
285912
285912
285912
285912
285912
285912
285912
285912
285912
285912
285912
285912
285912
285912
285912
285912
285912
285912
285912
285912
285912
285912
285912
285912
285912
285912
285912
285912
285912
285912
285912
285912
285912
285912
285912
285912
285912
285912
285912
285912
285912
285912
285912
285912
285912
285912
285912
285912
285912
285912
285912
285912
285912
285912
285912
285912
285912
285912
285912
285912
285912
285912
285912
285912
285912
285912
285912
285912
285912
285912
285912
285912
285912
285912
285912
285912
285912
285912
285912
285912
285912
285912
285912
285912
285912
285912
285912
285912
285912
285912
285912
285912
285912
285912
285912
285912
285912
285912
285912
285912
285912
285912
285912
285912
285912
285912
285912
285912
285912
285912
285912
285912
285912
285912
285912
285912
285912
285912
285912
285912
285912
285912
285912
285912
285912
285912
285912
285912
285912
285912
285912
285912
285912
285912
285912
285912
285912
285912
285912
285912
285912
285912
285912
285912
285912
285912
285912
285912
285912
285912
285912
285912
285912
285912
285912
285912
285912
285912
285912
285912
285912
285912
285912
285912
285912
285912
285912
285912
285912
285912
285912
285912
285912
285912
285912
285912
285912
285912
285912
285912
285912
285912
285912
285912
285912
285912
285912
285912
285912
285912
285912
285912
285912
285912
285912
285912
285912
285912
285912
285912
285912
285912
285912
285912
285912
285912
285912
285912
285912
285912
285912
285912
285912
285912
285912
285912
285912
285912
285912
285912
285912
285912
285912
285912
285912
285912
285912
285912
285912
285912
285912
285912
285912
285912
285912
285912
285912
285912
285912
285912
285912
285912
285912
285912
285912
285912
285912
285912
285912
285912
285912
285912
285912
285912
285912
285912
285912
285912
285912
285912
285912
285912
285912
285912
285912
285912
285912
285912
285912
285912
285912
285912
285912
285912
285912
285912
285912
285912
285912
285912
285920
285920
285920
285920
285920
285920
285920
285920
285920
285920
285920
285920
285920
285920
285920
285920
285920
285920
285920
285920
285920
285920
285920
285920
285920
285920
285920
285920
285920
285920
285920
285920
285920
285920
285920
285920
285920
285920
285920
285920
285920
285920
285920
285920
285920
285920
285920
285920
285920
285920
285920
285920
285920
285920
285920
285920
285920
285920
285920
285920
285920
285920
285920
285920
285920
285920
285920
285920
285920
285920
285920
285920
285920
285920
285920
285920
285920
285920
285920
285920
285920
285920
285920
285920
285920
285920
285920
285920
285920
285920
285920
285920
285920
285920
285920
285920
285920
285920
285920
285920
285920
285920
285920
285920
285920
285920
285920
285920
285920
285920
285920
285920
285920
285920
285920
285920
285920
285920
285920
285920
285920
285920
285920
285920
285920
285920
285920
285920
285920
285920
285920
285920
285920
285920
285920
285920
285920
285920
285920
285920
285920
285920
285920
285920
285920
285920
285920
285920
285920
285920
285920
285920
285920
285920
285920
285920
285920
285920
285920
285920
285920
285920
285920
285920
285920
285920
285920
285920
285920
285920
285920
285920
285920
285920
285920
285920
285920
285920
285920
285920
285920
285920
285920
285920
285920
285920
285920
285920
285920
285920
285920
285920
285920
285920
285920
285920
285920
285920
285920
285920
285920
285920
285920
285920
285920
285920
285920
285920
285920
285920
285920
285920
285920
285920
285920
285920
285920
285920
285920
285920
285920
285920
285920
285920
285920
285920
285920
285920
285920
285920
285920
285920
285920
285920
285920
285920
285920
285920
285920
285920
285920
285920
285920
285920
285920
285920
285920
285920
285920
285920
285920
285920
285920
285920
285920
285920
285920
285920
285920
285920
285920
285920
285920
285920
285920
285920
285920
285920
285920
285920
285920
285920
285920
285920
285920
285920
285920
285920
285920
285920
285920
285920
285920
285920
285920
285920
285920
285920
285920
285920
285920
285920
285920
285920
285920
285920
285920
285920
285920
285920
285920
285920
285920
285920
285920
285920
285920
285920
285920
285920
285920
285920
285920
285920
285920
285920
285920
285920
285920
285920
285920
285920
285920
285920
285920
285920
285920
285920
285920
285920
285920
285920
285920
285920
285920
285920
285920
285920
285920
285920
285920
285920
285920
285920
285920
285920
285920
285920
285920
285920
285920
285920
285920
285920
285920
285920
285920
285920
285920
285920
285920
285920
285920
285920
285920
285920
285920
285920
285920
285920
285920
285920
285920
285920
285920
285920
285920
285920
285920
285920
285920
285920
285920
285920
285920
285920
285920
285920
285920
285920
285920
285920
285920
285920
285920
285920
285920
285920
285920
285920
285920
285920
285920
285920
285920
285920
285920
285920
285920
285920
285920
285920
285920
285920
285920
285920
285920
285920
285920
285920
285920
285920
285920
285920
285920
285920
285920
285920
285920
285920
285920
285920
285920
285920
285920
285920
285920
285920
285920
285920
285920
285920
285920
285920
285920
285920
285920
285920
285920
285920
285920
285920
285920
285920
285920
285920
285920
285920
285920
285920
285920
285920
285920
285920
285920
285920
285920
285920
285920
285920
285920
285920
285920
285920
285920
285920
285920
285920
285920
285920
285920
285920
285920
285920
285920
285920
285920
285920
285920
285920
285920
285920
285920
285920
285920
285920
285920
285920
285920
285920
285920
285920
285920
285920
285920
285920
285920
285920
285920
285920
285920
285920
285920
285920
285920
285920
285920
285920
285920
285920
285920
285920
285920
285920
285920
285920
285920
285920
285920
285920
285920
285920
285920
285920
285920
285920
285920
285920
285920
285920
285920
285920
285920
285920
285920
285920
285920
285920
285920
285920
285920
285920
285920
285920
285920
285920
285920
285920
285920
285920
285920
285920
285920
285920
285920
285920
285920
285920
285920
285920
285920
285920
285920
285920
285920
285920
285920
285920
285920
285920
285920
285920
285920
285920
285920
285920
285920
285920
285920
285920
285920
285920
285920
285920
285920
285920
285920
285920
285920
285920
285920
285920
285920
285920
285920
285920
285920
285920
285920
285920
285920
285920
285920
285920
285920
285920
285920
285920
285920
285920
285920
285920
285920
285920
285920
285920
285920
285920
285920
285920
285920
285920
285920
285920
285920
285920
285920
285920
285920
285920
285920
285920
285920
285920
285920
285920
285920
285920
285920
285920
285920
285920
285920
285920
285920
285920
285920
285920
285920
285920
285920
285920
285920
285920
285920
285920
285920
285920
285920
285920
285920
285920
285920
285920
285920
285920
285920
285920
285920
285920
285920
285920
285920
285920
285920
285920
285920
285920
285920
285920
285920
285920
285920
285920
285920
285920
285920
285920
285920
285920
285920
285920
285920
285920
285924
285932
285932
285932
285932
285932
285932
285932
285932
286516
287968
288752
290696
294324
294464
294468
294468
294468
294576
294768
295000
295340
295480
295692
295804
295948
296204
296368
296472
296620
296728
296968
297272
297492
297648
297844
298040
298464
298940
299428
299708
299888
300488
300932
301076
301408
301640
301960
302348
302608
302996
303276
303672
304144
304604
304756
304884
305044
305204
305332
305652
305876
306052
306300
306512
306656
306968
307420
307692
308088
308220
308336
308568
308752
309024
309232
309576
309892
310096
310224
310468
310928
311540
311788
312096
312292
312456
312704
312960
313232
313388
313556
313776
313908
314244
314448
314636
314848
315176
315756
316240
316600
316936
317336
317764
318228
318468
318756
318936
319076
319228
319252
319404
319460
319516
319596
319680
319756
319864
319940
319992
320068
320136
320224
320412
320516
320680
320872
320976
321032
321092
321192
321220
321308
321356
321444
321568
321680
321812
321980
322148
322284
322412
322476
322632
322680
322792
322856
323048
323088
323224
323288
323492
323648
323704
323860
323924
324088
324180
324308
324348
324520
324580
324768
324848
324956
325108
325220
325332
325460
325580
325748
325812
325964
326112
326184
326360
326468
326780
327104
328236
329628
330820
331988
332948
334196
335312
336572
338052
339040
339780
340980
342248
343172
344436
345452
346696
347880
349104
350380
351624
352808
354016
355512
356744
357784
359240
360912
362148
363124
364368
365660
367188
367972
369216
370372
371444
372492
373876
374644
375532
376496
377264
378276
379420
380336
381532
388824
397352
402248
393824
393824
393824
393824
    0
