109576
15076
109576
15164
109576
16484
109576
15612
109576
15612
109576
15612
109576
15612
109576
15628
109576
15628
109576
15628
109576
15628
109576
15628
109576
15628
109576
15628
109576
15628
109576
15628
109576
15628
109576
15628
109576
15628
109576
15652
109576
18492
109576
19644
109576
21276
109576
21276
109576
21292
109576
21292
109576
21324
109576
21424
109576
21424
109576
21424
109576
21480
109576
23516
109576
27900
109576
33180
110632
39660
123428
41984
124416
46196
124416
50416
124416
54500
124416
54500
124416
55000
124416
57368
124416
60484
124416
64092
124416
66668
125796
68752
132524
70600
147812
73856
163504
77364
163504
80348
163504
84548
163504
89296
163504
94044
163504
96772
163504
96800
163556
98872
163556
100384
163556
103284
163556
106176
163556
110464
163556
114688
163556
118312
163556
118332
163556
118908
163556
119436
163556
119436
163556
119436
163556
119436
163556
119436
163556
119436
163556
119568
163556
119568
163556
119568
163556
119568
163556
119568
163556
119568
163556
119568
163556
119568
163556
119604
163556
119648
163556
119660
163556
119704
163556
119948
163556
120368
163556
120728
163556
121196
163556
121628
163556
122012
163556
122764
163556
123512
163556
124428
163556
125220
163556
126012
163556
126804
163556
127332
163556
127828
163556
128356
163556
128884
163556
129280
163556
129972
163556
130236
163556
131272
163556
132328
163556
133384
163556
134440
163556
135760
163556
136812
163556
138080
163556
139136
163556
140028
163556
141232
163556
142288
163556
143068
163556
143288
163556
143288
163556
143288
163556
143288
163556
143288
163556
143288
163556
143288
163556
143288
163556
143288
163556
143288
163556
143288
163556
143288
163556
143288
163556
143288
163556
143288
163556
143288
163556
143288
163556
143468
163556
143468
163556
143468
163556
143468
163556
143468
163556
143468
163556
143468
163556
143468
163556
144336
163556
145608
163556
146992
163556
148324
163556
149720
163556
150800
163556
152120
163556
153440
163556
154496
163556
155816
163556
156872
163556
157928
163556
159248
163556
160568
163556
161888
163556
163208
163556
164792
163556
166376
163556
166904
163556
166904
163556
166904
163556
166904
163556
166904
163556
166904
163556
166904
163556
166904
163556
166904
163556
166904
163556
166904
163556
166904
163556
166904
163556
166904
163556
166904
163556
166904
163556
166904
163556
166904
163556
166904
163556
166904
163556
166904
163556
166904
163556
168436
163556
173628
163556
182692
163556
186852
163556
186852
163556
186852
163556
186852
163556
186852
163556
186852
163556
186852
163556
186852
163556
186852
163556
186856
163556
186856
163556
186856
163556
186856
163556
186856
163556
186856
163556
186856
163556
186856
163556
186856
163556
186856
163556
186856
163556
186856
163556
186856
163556
186856
163556
186856
163556
186856
163556
186856
163556
186856
163556
186856
163556
186856
163556
186856
163556
186856
163556
186856
163556
186856
163556
186856
163556
186856
163556
186856
163556
186856
163556
186856
163556
186856
163556
186856
163556
186856
163556
186856
163556
186856
163556
186856
163556
186856
163556
186856
163556
186856
163556
186860
163556
186860
163556
186860
163556
186860
163556
186860
163556
187728
163556
187868
163556
187868
163556
187868
163556
187868
163556
187868
163556
187868
163556
187868
163556
187868
163556
187872
163556
191064
163556
188916
163556
188916
163556
188916
163556
188984
163556
192672
163556
192932
163556
192932
163556
192932
163556
192932
163556
192932
163556
192932
163556
192932
163556
192932
163556
192932
163556
192932
163556
192932
163556
192932
163556
192932
163556
192932
163556
192932
163556
192932
163556
192932
163556
192932
163556
192932
163556
192932
163556
192932
163556
192932
163556
192940
163556
192944
163556
192952
163556
192956
163556
192960
163556
192960
163556
193008
163556
193824
163556
193824
163556
193824
163556
193824
163556
193824
163556
193824
163556
193824
163556
193824
163556
193824
163556
193824
163556
193824
163556
193824
163556
193824
163556
193824
163556
193824
163556
193824
163556
193824
163556
193824
163556
193824
163556
193824
163556
193824
163556
193824
163556
193824
163556
193824
163556
193824
163556
193824
163556
193824
163556
193824
163556
193824
163556
193824
163556
193824
163556
193824
163556
193824
163556
193824
163556
193824
163556
193824
163556
193824
163556
193824
163556
193824
163556
193824
163556
193824
163556
193824
163556
193824
163556
193824
163556
193824
163556
193824
163556
193824
163556
193824
163556
193824
163556
193824
163556
193824
163556
193824
163556
193824
163556
193824
163556
193824
    0
193824
193824
193824
193824
193824
193824
193824
193824
193824
193824
193824
193824
193824
193824
193824
193824
193824
193824
193824
193824
193824
193824
193824
193824
193824
193824
193824
193824
193824
193824
193824
193824
193824
193824
193824
193824
193824
193824
193824
193824
193824
193824
193824
193824
193824
193824
193824
193824
193824
193824
193824
193824
193824
193824
193824
193824
193824
193824
193824
193824
193824
193824
193824
193824
193824
193824
193824
193824
193824
193824
193824
193824
193824
193824
193824
193824
193824
193824
193824
193824
193824
193824
193824
193824
193824
193824
193824
193824
193824
193824
193824
193824
193824
193824
193824
193824
193824
193824
193824
193824
193824
193824
193824
193824
193824
193824
193824
193824
193824
193824
193824
193824
193824
193824
193824
193824
193824
193824
193824
193824
193824
193824
193824
193824
193824
193824
193824
193824
193824
193824
193824
193824
193824
193824
193824
193824
193824
193824
193824
193824
193824
193824
193824
193824
193824
193824
193824
193824
193824
193824
193824
193824
193824
193824
193824
193824
193824
193824
193824
193824
193824
193824
193824
193824
193824
193824
193824
193824
193824
193824
193824
193824
193824
193824
193824
193824
193824
193824
193824
193824
193824
193824
193824
193824
193824
193824
193824
193824
193824
193824
193824
193824
193824
193824
193824
193824
193824
193824
193824
193824
193824
193824
193824
193824
193824
193824
193824
193824
193824
193824
193824
193824
193824
193824
193824
193824
193824
193824
193824
193824
193824
193824
193824
193824
193824
193824
193824
193824
193824
193824
193824
193824
193824
193824
193824
193824
193824
193824
193824
193824
193824
193824
193824
193824
193824
193824
193824
193824
193824
193824
193824
193824
193824
193824
193824
193824
193824
193824
193824
193824
193824
193824
193824
193824
193824
193824
193824
193824
193824
193824
193824
193824
193824
193824
193824
193824
193824
193824
193824
193824
193824
193824
193824
193824
193824
193824
193824
193824
193824
193824
193824
193824
193824
193824
193824
193824
193824
193824
193824
193824
193824
193824
193824
193824
193824
193824
193824
193824
193824
193824
193824
193824
193824
193824
193824
193824
193824
193824
193824
193824
193824
193824
193824
193824
193824
193824
193824
193824
193824
193824
193824
193824
193824
193824
193824
193824
193824
193824
193824
193824
193824
193824
193824
193824
193824
193824
193824
193824
193824
193824
193824
193824
193824
193824
193824
193824
193824
193824
193824
193824
193824
193824
193824
193824
193824
193824
193824
193824
193824
193824
193824
193824
193824
193824
193824
193824
193824
193824
193824
193824
193824
193824
193824
193824
193824
193824
193824
193824
193824
193824
193824
193824
193824
193824
193824
193824
193824
193824
193824
193824
193824
193824
193824
193824
193824
193824
193824
193824
193824
193824
193824
193824
193824
193824
193824
193824
193824
193824
193824
193824
193824
193824
193824
193824
193824
193824
193824
193824
193824
193824
193824
193824
193824
193824
193824
193824
193824
193824
193824
193824
193824
193824
193824
193824
193824
193824
193824
193824
193824
193824
193824
193824
193824
193824
193824
193824
193824
193824
193824
193824
193824
193824
193824
193824
193824
193824
193824
193824
193824
193824
193824
193824
193824
193824
193824
193824
193824
193824
193824
193824
193824
193824
193824
193824
193824
193824
193824
193824
193824
193824
193824
193824
193824
193824
193824
193824
193824
193824
193824
193824
193824
193824
193824
193824
193824
193824
193824
193824
193824
193824
193824
193824
193824
193824
193824
193824
193824
193824
193824
193824
193824
193824
193824
193824
193824
193824
193824
193824
193824
193824
193824
193824
193824
193824
193824
193824
193824
193824
193824
193824
193824
193824
193824
193824
193824
193824
193824
193824
193824
193824
193824
193824
193824
193824
193824
193824
193824
193824
193824
193824
193824
193824
193824
193824
193824
193824
193824
193824
193824
193824
193824
193824
193824
193824
193824
193824
193824
193824
193824
193824
193824
193824
193824
193824
193824
193824
193824
193824
193824
193824
193824
193824
193824
193824
193824
193824
193824
193824
193824
193824
193824
193824
193824
193824
193824
193824
193824
193824
193824
193824
193824
193824
193824
193824
193824
193824
193824
193824
193824
193824
193824
193824
193824
193824
193824
193824
193824
193824
193824
193824
193824
193824
193824
193824
193824
193824
193824
193824
193824
193824
193824
193824
193824
193824
193824
193824
193824
193824
193824
193824
193824
193824
193824
193824
193824
193824
193824
193824
193824
193824
193824
193824
193824
193824
193824
193824
193824
193824
193824
193824
193824
193824
193824
193824
193824
193824
193824
193824
193824
193824
193824
193824
193824
193824
193824
193824
193824
193824
193824
193824
193824
193824
193824
193824
193824
193824
193824
193824
193824
193824
193824
193824
193824
193824
193824
193824
193824
193824
193824
193824
193824
193824
193824
193824
193824
193824
193824
193824
193824
193824
193824
193824
193824
193824
193824
193824
193824
193824
193824
193824
193824
193824
193824
193824
193824
193824
193824
193824
193824
193824
193824
193824
193824
193824
193824
193824
193824
193824
193824
193824
193824
193824
193824
193824
193824
193824
193824
193824
193824
193824
193824
193824
193824
193824
193824
193824
193824
193824
193824
193824
193824
193824
193824
193824
193824
193824
193824
193824
193824
193824
193824
193824
193824
193824
193824
193824
193824
193824
193824
193824
193824
193824
193824
193824
193824
193824
193824
193824
193824
193824
193824
193824
193824
193824
193824
193824
193824
193824
193824
193824
193824
193824
193824
193824
193824
193824
193824
193824
193824
193824
193824
193824
193824
193824
193824
193824
193824
193824
193824
193824
193824
193824
193824
193824
193824
193824
193824
193824
193824
193824
193824
193824
193824
193824
193824
193824
193824
193824
193824
193824
193824
193824
193824
193824
193824
193824
193824
193824
193824
193824
193824
193824
193824
193824
193824
193824
193824
193824
193824
193824
193824
193824
193824
193824
193824
193824
193824
193824
193824
193824
193824
193824
193824
193824
193824
193824
193824
193824
193824
193824
193824
193824
193824
193824
193824
193824
193824
193824
193824
193824
193824
193824
193824
193824
193824
193824
193824
193824
193824
193824
193824
193824
193824
193824
193824
193824
193824
193824
193824
193824
193824
193824
193824
193824
193824
193824
193824
193824
193824
193824
193824
193824
193824
193824
193824
193824
193824
193824
193824
193824
193824
193824
193824
193824
193824
193824
193824
193824
193824
193824
193824
193824
193824
193824
193824
193824
193824
193824
193824
193824
193824
193824
193824
193824
193824
193824
193824
193824
193824
193824
193824
193824
193824
193824
193824
193824
193824
193824
193824
193824
193824
193824
193824
193824
193824
193824
193824
193824
193824
193824
193824
193824
193824
193824
193824
193824
193824
193824
193824
193824
193824
193824
193824
193824
193824
193824
193824
193824
193824
193824
193824
193824
193824
193824
193824
193824
193824
193824
193824
193824
193824
193824
193824
193824
193824
193824
193824
193824
193824
193824
193824
193824
193824
193824
193824
193824
193824
193824
193824
193824
193824
193824
193824
193824
193824
193824
193824
193824
193824
193824
193824
193824
193824
193824
193824
193824
193824
193824
193824
193824
193824
193824
193824
193824
193824
193824
193824
193824
193824
193824
193824
193824
193824
193824
193824
193824
193824
193824
193824
193824
193824
193824
193824
193824
193824
193824
193824
193824
193824
193824
193824
193824
193824
193824
193824
193824
193824
193824
193824
193824
193824
193824
193824
193824
193824
193824
193824
193824
193824
193824
193824
193824
193824
193824
193824
193824
193824
193824
193824
193824
193824
193824
193824
193824
193824
193824
193824
193824
193824
193824
193824
193824
193824
193824
193824
193824
193824
193824
193824
193824
193824
193824
193824
193824
193824
193824
193824
193824
193824
193824
193824
193824
193824
193824
193824
193824
193824
193824
193824
193824
193824
193824
193824
193824
193824
193824
193824
193824
193824
193824
193824
193824
193824
193824
193824
193824
193824
193824
193824
193824
193824
193824
193824
193824
193824
193824
193824
193824
193824
193824
193824
193824
193824
193824
193824
193824
193824
193824
193824
193824
193824
193824
193824
193824
193824
193824
193824
193824
193824
193824
193824
193824
193824
193824
193824
193824
193824
193824
193824
193824
193824
193824
193824
193824
193824
193824
193824
193824
193824
193824
193824
193824
193824
193824
193824
193824
193824
193824
193824
193824
193824
193824
193824
193824
193824
193824
193824
193824
193824
193824
193824
193824
193824
193824
193824
193824
193824
193824
193824
193824
193824
193824
193824
193824
193824
193824
193824
193824
193824
193824
193824
193824
193824
193824
193824
193824
193824
193824
193824
193824
193824
193824
193824
193824
193824
193824
193824
193824
193824
193824
193824
193824
193824
193824
193824
193824
193824
193824
193824
193824
193824
193824
193824
193824
193824
193824
193824
193824
193824
193824
193824
193824
193824
193824
193824
193824
193824
193824
193824
193824
193824
193824
193824
193824
193824
193824
193824
193824
193824
193824
193824
193824
193824
193824
193824
193824
193824
193824
193824
193824
193824
193824
193824
193824
193824
193824
193824
193824
193824
193824
193824
193824
193824
193824
193824
193824
193824
193824
193824
193824
193824
193824
193824
193824
193824
193824
193824
193824
193824
193824
193824
193824
193824
193824
193824
193824
193824
193824
193824
193824
193824
193824
193824
193824
193824
193824
193824
193824
193824
193824
193824
193824
193824
193824
193824
193824
193824
193824
193824
193824
193824
193824
193824
193824
193824
193824
193824
193824
193824
193824
193824
193824
193824
193824
193824
193824
193824
193824
193824
193824
193824
193824
193824
193824
193824
193824
193824
193824
193824
193824
193824
193824
193824
193824
193824
193824
193824
193824
193824
193824
193824
193824
193824
193824
193824
193824
193824
193824
193824
193824
193824
193824
193824
193824
193824
193824
193824
193824
193824
193824
193824
193824
193824
193824
193824
193824
193824
193824
193824
193824
193824
193824
193824
193824
193824
193824
193824
193824
193824
193824
193824
193824
193824
193824
193824
193824
193824
193824
193824
193824
193824
193824
193824
193824
193824
193824
193824
193824
193824
193824
193824
193824
193824
193824
193824
193824
193824
193824
193824
193824
193824
193824
193824
193824
193824
193824
193824
193824
193824
193824
193824
193824
193824
193824
193824
193824
193824
193824
193824
193824
193824
193824
193824
193824
193824
193824
193824
193824
193824
193824
193824
193824
193824
193824
193824
193824
193824
193824
193824
193824
193824
193824
193824
193824
193824
193824
193824
193824
193824
193824
193824
193824
193824
193824
193824
193824
193824
193824
193824
193824
193824
193824
193824
193824
193824
193824
193824
193824
193824
193824
193824
193824
193824
193824
193824
193824
193824
193824
193824
193824
193824
193824
193824
193824
193824
193824
193824
193824
193824
193824
193824
193824
193824
193824
193824
193824
193824
193824
193824
193824
193824
193824
193824
193824
193824
193824
193824
193824
193824
193824
193824
193824
193824
193824
193824
193824
193824
193824
193824
193824
193824
193824
193824
193824
193824
193824
193824
193824
193824
193824
193824
193824
193824
193824
193824
193824
193824
193824
193824
193824
193824
193824
193824
193824
193824
193824
193824
193824
193824
193824
193824
193824
193824
193824
193824
193824
193824
193824
193824
193824
193824
193824
193824
193824
193824
193824
193824
193824
193824
193824
193824
193824
193824
193824
193824
193824
193824
193824
193824
193824
193824
193824
193824
193824
193824
193824
193824
193824
193824
193824
193824
193824
193824
193824
193824
193824
193824
193824
193824
193824
193824
193824
193824
193824
193824
193824
193824
193824
193824
193824
193824
193824
193824
193824
193824
193824
193824
193824
193824
193824
193824
193824
193824
193824
193824
193824
193824
193824
193824
193824
193824
193824
193824
193824
193824
193824
193824
193824
193824
193824
193824
193824
193824
193824
193824
193824
193824
193824
193824
193824
193824
193824
193824
193824
193824
193824
193824
193824
193824
193824
193824
193824
193824
193824
193824
193824
193824
193824
193824
193824
193824
193824
193824
193824
193824
193824
193824
193824
193824
193824
193824
193824
193824
193824
193824
193824
193824
193824
193824
193824
193824
193824
193824
193824
193824
193824
193824
193824
193824
193824
193824
193824
193824
193824
193824
193824
193824
193824
193824
193824
193824
193824
193824
193824
193824
193824
193824
193824
193824
193824
193824
193824
193824
193824
193824
193824
193824
193824
193824
193824
193824
193824
193824
193824
193824
193824
193824
193824
193824
193824
193824
193824
193824
193824
193824
193824
193824
193824
193824
193824
193824
193824
193824
193824
193824
193824
193824
193824
193824
193824
193824
193824
193824
193824
193824
193824
193824
193824
193824
193824
193824
193824
193824
193824
193824
193824
193824
193824
193824
193824
193824
193824
193824
193824
193824
193824
193824
193824
193824
193824
193824
193824
193824
193824
193824
193824
193824
193824
193824
193824
193824
193824
193824
193824
193824
193824
193824
193824
193824
193824
193824
193824
193824
193824
193824
193824
193824
193824
193824
193824
193824
193824
193824
193824
193824
193824
193824
193824
193824
193824
193824
193824
193824
193824
193824
193824
193824
193824
193824
193824
193824
193824
193824
193824
193824
193824
193824
193868
193872
194368
194452
194452
194452
194452
194452
194452
194452
194452
194452
194452
194452
194452
194452
194452
194452
194452
194452
194452
194452
194452
194452
194452
194452
194452
194452
194452
194452
194452
194452
194452
194452
194452
194452
194452
194452
194452
194452
194452
194452
194452
194452
194452
194452
194452
194452
194452
194452
194452
194452
194452
194452
194452
194452
194452
194452
194452
194452
194452
194452
194452
194452
194452
194452
194452
194452
194452
194452
194452
194452
194452
194452
194452
194452
194452
194452
194452
194452
194452
194452
194452
194452
194452
194452
194452
194452
194452
194452
194452
194452
194452
194452
194452
194452
194452
194452
194452
194452
194452
194452
194452
194452
194452
194452
194452
194452
194452
194452
194452
195140
197548
197560
197572
197852
197988
197988
198000
198000
198000
198000
198416
198444
198476
198576
198628
198676
198772
198820
198884
198932
198944
198984
199160
199288
199352
199432
199500
199564
199700
199856
200028
200272
200464
200644
200788
200992
201196
201512
201756
201956
202088
202412
202856
203248
203676
203876
203992
204340
204932
205092
205340
205576
205828
206048
206468
206684
207036
207408
207956
208284
208468
208620
208720
208908
209232
209452
209664
209992
210180
210580
211100
211568
211716
211876
212060
212168
212420
212844
213012
213348
213432
213720
213992
214624
214956
215112
215312
215532
215788
216036
216172
216320
216556
216704
216880
217228
217340
217588
217860
218328
218812
219132
219488
219940
220476
220904
221252
221476
221528
221632
221712
221832
221880
221984
222028
222208
222248
222284
222376
222448
222508
222636
222680
222856
222988
223152
223352
223488
223500
223616
223696
223844
223936
223968
224040
224132
224232
224248
224388
224452
224556
224736
224800
224848
224928
225044
225088
225212
225224
225332
225456
225596
225624
225732
225840
225888
225984
226016
226140
226156
226268
226332
226396
226428
226556
226636
226700
226852
226984
227048
227092
227128
227196
227348
227444
227492
227656
228776
230344
231716
233260
234672
235820
237260
238508
239500
241060
242216
243560
244712
246412
247856
249248
250584
251872
253340
254800
256196
257512
258872
260264
261664
263040
264304
265648
266760
268284
269476
270672
271752
272764
274252
279888
288000
291696
284748
284748
    0
